time/s	Ewe/V	<I>/mA	
0.000000000000000E+000	2.9077559E+000	0.000000000000000E+000
1.000000047497451E+000	2.9078348E+000	0.000000000000000E+000
2.000000094994903E+000	2.9079528E+000	0.000000000000000E+000
3.000000142492354E+000	2.9079528E+000	0.000000000000000E+000
4.000000189989805E+000	2.9080315E+000	0.000000000000000E+000
5.000000237487257E+000	2.9081497E+000	0.000000000000000E+000
6.000000284984708E+000	2.9081497E+000	0.000000000000000E+000
7.000000332482159E+000	2.9081891E+000	0.000000000000000E+000
8.000000379979610E+000	2.9082677E+000	0.000000000000000E+000
9.000000427477062E+000	2.9082284E+000	0.000000000000000E+000
1.001000047544949E+001	2.7958920E+000	-2.176207637343837E-002
1.001200047554448E+001	2.7943170E+000	-1.098787732386799E+001
2.501200118800625E+001	2.7193868E+000	-1.099129617644812E+001
4.001200190046802E+001	2.6931236E+000	-1.099123234219720E+001
5.501200261292979E+001	2.6736331E+000	-1.099114826779934E+001
7.001200332539156E+001	2.6581194E+000	-1.099118426111937E+001
8.501200403785333E+001	2.6449289E+000	-1.099130169440745E+001
1.000120047503151E+002	2.6336284E+000	-1.099115982429700E+001
1.150120054627769E+002	2.6235483E+000	-1.099109913704403E+001
1.300120061752386E+002	2.6145709E+000	-1.099131324848914E+001
1.450120068877004E+002	2.6064990E+000	-1.099133348761883E+001
1.600120076001622E+002	2.5991359E+000	-1.099130038431331E+001
1.750120083126239E+002	2.5924816E+000	-1.099128881103099E+001
1.900120090250857E+002	2.5862210E+000	-1.099136107118482E+001
2.050120097375475E+002	2.5805509E+000	-1.099140021887787E+001
2.200120104500093E+002	2.5752354E+000	-1.099141045549034E+001
2.350120111624710E+002	2.5703135E+000	-1.099146458324452E+001
2.500120118749328E+002	2.5657067E+000	-1.099137551502671E+001
2.650120125873946E+002	2.5611787E+000	-1.099140205743471E+001
2.800120132998563E+002	2.5570049E+000	-1.099139811202067E+001
2.950120140123181E+002	2.5530281E+000	-1.099132271872896E+001
3.100120147247799E+002	2.5492480E+000	-1.099127253079393E+001
3.250120154372416E+002	2.5454681E+000	-1.099121946975620E+001
3.400120161497034E+002	2.5419242E+000	-1.099135160984596E+001
3.550120168621652E+002	2.5383413E+000	-1.099139995451936E+001
3.700120175746270E+002	2.5351517E+000	-1.099150950791483E+001
3.850120182870887E+002	2.5318444E+000	-1.099145827131957E+001
4.000120189995505E+002	2.5287731E+000	-1.099161958532253E+001
4.150120197120123E+002	2.5258987E+000	-1.099151213407946E+001
4.300120204244740E+002	2.5229456E+000	-1.099136081089533E+001
4.450120211369358E+002	2.5200713E+000	-1.099115273480963E+001
4.600120218493976E+002	2.5173545E+000	-1.099130537991346E+001
4.750120225618593E+002	2.5145981E+000	-1.099130563219209E+001
4.900120232743211E+002	2.5119994E+000	-1.099127332221642E+001
5.050120239867829E+002	2.5094399E+000	-1.099144723985138E+001
5.200120246992446E+002	2.5068018E+000	-1.099137603929324E+001
5.350120254117064E+002	2.5044000E+000	-1.099149741608801E+001
5.500120261241682E+002	2.5018406E+000	-1.099153734948150E+001
5.650120268366300E+002	2.4993994E+000	-1.099160381778075E+001
5.800120275490917E+002	2.4968796E+000	-1.099145485691137E+001
5.950120282615535E+002	2.4945171E+000	-1.099168999509396E+001
6.100120289740153E+002	2.4922726E+000	-1.099160066747675E+001
6.250120296864770E+002	2.4899495E+000	-1.099145301988041E+001
6.400120303989388E+002	2.4877839E+000	-1.099134530389736E+001
6.550120311114006E+002	2.4854608E+000	-1.099153261887565E+001
6.700120318238623E+002	2.4833345E+000	-1.099126070828472E+001
6.850120325363241E+002	2.4811296E+000	-1.099131562123072E+001
7.000120332487859E+002	2.4790821E+000	-1.099123916834332E+001
7.150120339612477E+002	2.4771132E+000	-1.099113250102051E+001
7.300120346737094E+002	2.4750264E+000	-1.099119109591213E+001
7.450120353861712E+002	2.4731364E+000	-1.099112042305376E+001
7.600120360986330E+002	2.4711282E+000	-1.099113460508026E+001
7.750120368110947E+002	2.4692383E+000	-1.099094386908163E+001
7.900120375235565E+002	2.4673483E+000	-1.099131429943818E+001
8.050120382360183E+002	2.4653797E+000	-1.099122208651125E+001
8.200120389484800E+002	2.4636865E+000	-1.099110386319940E+001
8.350120396609418E+002	2.4619145E+000	-1.099079962813695E+001
8.500120403734036E+002	2.4601822E+000	-1.099075550137411E+001
8.650120410858653E+002	2.4583316E+000	-1.099063333951468E+001
8.800120417983271E+002	2.4566777E+000	-1.099074919580698E+001
8.950120425107889E+002	2.4548271E+000	-1.099064541938878E+001
9.100120432232507E+002	2.4532521E+000	-1.099063990320964E+001
9.250120439357124E+002	2.4515197E+000	-1.099063964609905E+001
9.400120446481742E+002	2.4499447E+000	-1.099077284845479E+001
9.550120453606360E+002	2.4482515E+000	-1.099082696845242E+001
9.700120460730977E+002	2.4467554E+000	-1.099084193656084E+001
9.850120467855595E+002	2.4451804E+000	-1.099087819589241E+001
1.000012047498021E+003	2.4436054E+000	-1.099116271253132E+001
1.015012048210483E+003	2.4420304E+000	-1.099121105656894E+001
1.030012048922945E+003	2.4405341E+000	-1.099118399739664E+001
1.045012049635407E+003	2.4390771E+000	-1.099118951586460E+001
1.060012050347868E+003	2.4375415E+000	-1.099102111657044E+001
1.075012051060330E+003	2.4359665E+000	-1.099117900128787E+001
1.090012051772792E+003	2.4344704E+000	-1.099115693288377E+001
1.105012052485254E+003	2.4331317E+000	-1.099105368658130E+001
1.120012053197715E+003	2.4317141E+000	-1.099095017375866E+001
1.135012053910177E+003	2.4303753E+000	-1.099105632113826E+001
1.150012054622639E+003	2.4291942E+000	-1.099106550565728E+001
1.165012055335101E+003	2.4277766E+000	-1.099118557312085E+001
1.180012056047563E+003	2.4265561E+000	-1.099108994400552E+001
1.195012056760024E+003	2.4253354E+000	-1.099099982598307E+001
1.210012057472486E+003	2.4239967E+000	-1.099106997711804E+001
1.225012058184948E+003	2.4229729E+000	-1.099090498994326E+001
1.240012058897410E+003	2.4217522E+000	-1.099088843962565E+001
1.255012059609871E+003	2.4204528E+000	-1.099087897777816E+001
1.270012060322333E+003	2.4194686E+000	-1.099099457937585E+001
1.285012061034795E+003	2.4181297E+000	-1.099101269435506E+001
1.300012061747257E+003	2.4171062E+000	-1.099089448210583E+001
1.315012062459718E+003	2.4160824E+000	-1.099070137959628E+001
1.330012063172180E+003	2.4149404E+000	-1.099082801406089E+001
1.345012063884642E+003	2.4138772E+000	-1.099109335625206E+001
1.360012064597104E+003	2.4126568E+000	-1.099116560547043E+001
1.375012065309566E+003	2.4116724E+000	-1.099096383444323E+001
1.390012066022027E+003	2.4104910E+000	-1.099102321338227E+001
1.405012066734489E+003	2.4093885E+000	-1.099112935173375E+001
1.420012067446951E+003	2.4084041E+000	-1.099104449850190E+001
1.435012068159413E+003	2.4074593E+000	-1.099099668254551E+001
1.450012068871874E+003	2.4063172E+000	-1.099104896551219E+001
1.465012069584336E+003	2.4054117E+000	-1.099110570798691E+001
1.480012070296798E+003	2.4044666E+000	-1.099103870130674E+001
1.495012071009260E+003	2.4036791E+000	-1.099113827888787E+001
1.510012071721721E+003	2.4028130E+000	-1.099110780823197E+001
1.525012072434183E+003	2.4018285E+000	-1.099115667386584E+001
1.540012073146645E+003	2.4010017E+000	-1.099107365753779E+001
1.555012073859107E+003	2.4001749E+000	-1.099110991025722E+001
1.570012074571569E+003	2.3991904E+000	-1.099104790680659E+001
1.585012075284030E+003	2.3983636E+000	-1.099111752629995E+001
1.600012075996492E+003	2.3975761E+000	-1.099117557975890E+001
1.615012076708954E+003	2.3967886E+000	-1.099122761324439E+001
1.630012077421416E+003	2.3958831E+000	-1.099127042800574E+001
1.645012078133877E+003	2.3951743E+000	-1.099141046286542E+001
1.660012078846339E+003	2.3943868E+000	-1.099153287878368E+001
1.675012079558801E+003	2.3935993E+000	-1.099158674421386E+001
1.690012080271263E+003	2.3928118E+000	-1.099145512330438E+001
1.705012080983724E+003	2.3919849E+000	-1.099156861740910E+001
1.720012081696186E+003	2.3912368E+000	-1.099151318439273E+001
1.735012082408648E+003	2.3904886E+000	-1.099154497048334E+001
1.750012083121110E+003	2.3897798E+000	-1.099139968520175E+001
1.765012083833572E+003	2.3890319E+000	-1.099121053230241E+001
1.780012084546033E+003	2.3883231E+000	-1.099129039641910E+001
1.795012085258495E+003	2.3875356E+000	-1.099146011470836E+001
1.810012085970957E+003	2.3867481E+000	-1.099148822839009E+001
1.825012086683419E+003	2.3859212E+000	-1.099132270982800E+001
1.840012087395880E+003	2.3852124E+000	-1.099121000256814E+001
1.855012088108342E+003	2.3844249E+000	-1.099116902191314E+001
1.870012088820804E+003	2.3838344E+000	-1.099131009996532E+001
1.885012089533266E+003	2.3830469E+000	-1.099114327436086E+001
1.900012090245727E+003	2.3824956E+000	-1.099120396517422E+001
1.915012090958189E+003	2.3817475E+000	-1.099121999465852E+001
1.930012091670651E+003	2.3809600E+000	-1.099120737818370E+001
1.945012092383113E+003	2.3804088E+000	-1.099125808453607E+001
1.960012093095575E+003	2.3793061E+000	-1.099105500405052E+001
1.975012093808036E+003	2.3785975E+000	-1.099111490051679E+001
1.990012094520498E+003	2.3777707E+000	-1.099117637334305E+001
2.005012095232960E+003	2.3770618E+000	-1.099101296964903E+001
2.020012095945422E+003	2.3762350E+000	-1.099114958221680E+001
2.035012096657883E+003	2.3755655E+000	-1.099103057562048E+001
2.050012097370345E+003	2.3748174E+000	-1.099108547076456E+001
2.065012098082807E+003	2.3740695E+000	-1.099098196162947E+001
2.080012098795269E+003	2.3734000E+000	-1.099091339664554E+001
2.095012099507730E+003	2.3726912E+000	-1.099095543753201E+001
2.110012100220192E+003	2.3718250E+000	-1.099101322942990E+001
2.125012100932654E+003	2.3709981E+000	-1.099115508873204E+001
2.140012101645116E+003	2.3704863E+000	-1.099118320343102E+001
2.155012102357578E+003	2.3696988E+000	-1.099099930553123E+001
2.170012103070039E+003	2.3690293E+000	-1.099101217975242E+001
2.185012103782501E+003	2.3684781E+000	-1.099084561596333E+001
2.200012104494963E+003	2.3676119E+000	-1.099073212071421E+001
2.215012105207425E+003	2.3671000E+000	-1.099079596488334E+001
2.230012105919886E+003	2.3664701E+000	-1.099079570014336E+001
2.245012106632348E+003	2.3658006E+000	-1.099092100963651E+001
2.260012107344810E+003	2.3650918E+000	-1.099077126891588E+001
2.275012108057272E+003	2.3643832E+000	-1.099089369767695E+001
2.290012108769733E+003	2.3639107E+000	-1.099075444851771E+001
2.305012109482195E+003	2.3633201E+000	-1.099083405882989E+001
2.320012110194657E+003	2.3626900E+000	-1.099079491177263E+001
2.335012110907119E+003	2.3619025E+000	-1.099081567160847E+001
2.350012111619581E+003	2.3613119E+000	-1.099091996771558E+001
2.365012112332042E+003	2.3604851E+000	-1.099099378528308E+001
2.380012113044504E+003	2.3599339E+000	-1.099104554156724E+001
2.395012113756966E+003	2.3591070E+000	-1.099108416715541E+001
2.410012114469428E+003	2.3584769E+000	-1.099092679615052E+001
2.425012115181889E+003	2.3579257E+000	-1.099085533568435E+001
2.440012115894351E+003	2.3571775E+000	-1.099094754962854E+001
2.455012116606813E+003	2.3565869E+000	-1.099096015453211E+001
2.470012117319275E+003	2.3559568E+000	-1.099102163676796E+001
2.485012118031736E+003	2.3552876E+000	-1.099094649677214E+001
2.500012118744198E+003	2.3545394E+000	-1.099080805378555E+001
2.515012119456660E+003	2.3538702E+000	-1.099087556642171E+001
2.530012120169122E+003	2.3532007E+000	-1.099090156777851E+001
2.545012120881584E+003	2.3524919E+000	-1.099073685284594E+001
2.560012121594045E+003	2.3517833E+000	-1.099086321812009E+001
2.575012122306507E+003	2.3511531E+000	-1.099083825461521E+001
2.590012123018969E+003	2.3503656E+000	-1.099088108158360E+001
2.605012123731431E+003	2.3495781E+000	-1.099083352617102E+001
2.620012124443892E+003	2.3489089E+000	-1.099088765036482E+001
2.635012125156354E+003	2.3484364E+000	-1.099102504596275E+001
2.650012125868816E+003	2.3476882E+000	-1.099096909414757E+001
2.665012126581278E+003	2.3471763E+000	-1.099086032696117E+001
2.680012127293739E+003	2.3466644E+000	-1.099088265641771E+001
2.695012128006201E+003	2.3459952E+000	-1.099082065449296E+001
2.710012128718663E+003	2.3453650E+000	-1.099086768767351E+001
2.725012129431125E+003	2.3447745E+000	-1.099098249441549E+001
2.740012130143587E+003	2.3441050E+000	-1.099107812009759E+001
2.755012130856048E+003	2.3433964E+000	-1.099098669808452E+001
2.770012131568510E+003	2.3427663E+000	-1.099088370863832E+001
2.785012132280972E+003	2.3421757E+000	-1.099113355260534E+001
2.800012132993434E+003	2.3415458E+000	-1.099105131867166E+001
2.815012133705895E+003	2.3409550E+000	-1.099118268590379E+001
2.830012134418357E+003	2.3402858E+000	-1.099109361870322E+001
2.845012135130819E+003	2.3397739E+000	-1.099103109124037E+001
2.860012135843281E+003	2.3391833E+000	-1.099092022660636E+001
2.875012136555742E+003	2.3386714E+000	-1.099108101519837E+001
2.890012137268204E+003	2.3380020E+000	-1.099104396368137E+001
2.905012137980666E+003	2.3374507E+000	-1.099098643016563E+001
2.920012138693128E+003	2.3366632E+000	-1.099105368963306E+001
2.935012139405590E+003	2.3360333E+000	-1.099133558417635E+001
2.950012140118051E+003	2.3353639E+000	-1.099122392557671E+001
2.965012140830513E+003	2.3346944E+000	-1.099115588485932E+001
2.980012141542975E+003	2.3341827E+000	-1.099126754269602E+001
2.995012142255437E+003	2.3335133E+000	-1.099101164989099E+001
3.010012142967898E+003	2.3330014E+000	-1.099098721713764E+001
3.025012143680360E+003	2.3323319E+000	-1.099080699686015E+001
3.040012144392822E+003	2.3316627E+000	-1.099078886827519E+001
3.055012145105284E+003	2.3309932E+000	-1.099097486438554E+001
3.070012145817745E+003	2.3304026E+000	-1.099093887831344E+001
3.085012146530207E+003	2.3296151E+000	-1.099101795711115E+001
3.100012147242669E+003	2.3289063E+000	-1.099093361962635E+001
3.115012147955131E+003	2.3283157E+000	-1.099080700181925E+001
3.130012148667593E+003	2.3275676E+000	-1.099082406902832E+001
3.145012149380054E+003	2.3269770E+000	-1.099089815604059E+001
3.160012150092516E+003	2.3263471E+000	-1.099090420093675E+001
3.175012150804978E+003	2.3255596E+000	-1.099087556006388E+001
3.190012151517440E+003	2.3250084E+000	-1.099093073698692E+001
3.205012152229901E+003	2.3244569E+000	-1.099091996707980E+001
3.220012152942363E+003	2.3237484E+000	-1.099101401589328E+001
3.235012153654825E+003	2.3231182E+000	-1.099076023490456E+001
3.250012154367287E+003	2.3223703E+000	-1.099081251354791E+001
3.265012155079748E+003	2.3217008E+000	-1.099099299831107E+001
3.280012155792210E+003	2.3210709E+000	-1.099109257067878E+001
3.295012156504672E+003	2.3203621E+000	-1.099095490779774E+001
3.310012157217134E+003	2.3196139E+000	-1.099100114065484E+001
3.325012157929596E+003	2.3188264E+000	-1.099092390346572E+001
3.340012158642057E+003	2.3181570E+000	-1.099094492053931E+001
3.355012159354519E+003	2.3175664E+000	-1.099086531861946E+001
3.370012160066981E+003	2.3169365E+000	-1.099082486935177E+001
3.385012160779443E+003	2.3161883E+000	-1.099104264964538E+001
3.400012161491904E+003	2.3155978E+000	-1.099093677247349E+001
3.415012162204366E+003	2.3150070E+000	-1.099081829421272E+001
3.430012162916828E+003	2.3142984E+000	-1.099094675909614E+001
3.445012163629290E+003	2.3136683E+000	-1.099096068591942E+001
3.460012164341751E+003	2.3128021E+000	-1.099100061715124E+001
3.475012165054213E+003	2.3120933E+000	-1.099096909325748E+001
3.490012165766675E+003	2.3115420E+000	-1.099094360586753E+001
3.505012166479137E+003	2.3109908E+000	-1.099115536428033E+001
3.520012167191599E+003	2.3104002E+000	-1.099100692398993E+001
3.535012167904060E+003	2.3097308E+000	-1.099117322049591E+001
3.550012168616522E+003	2.3091009E+000	-1.099102032603804E+001
3.565012169328984E+003	2.3084710E+000	-1.099093651854182E+001
3.580012170041446E+003	2.3078802E+000	-1.099099983501118E+001
3.595012170753907E+003	2.3071716E+000	-1.099084587727008E+001
3.610012171466369E+003	2.3067384E+000	-1.099076679478483E+001
3.625012172178831E+003	2.3060296E+000	-1.099073212516469E+001
3.640012172891293E+003	2.3054390E+000	-1.099076416887451E+001
3.655012173603754E+003	2.3047302E+000	-1.099073054295549E+001
3.670012174316216E+003	2.3041003E+000	-1.099082065792619E+001
3.685012175028678E+003	2.3035491E+000	-1.099061573583204E+001
3.700012175741140E+003	2.3028796E+000	-1.099045232717891E+001
3.715012176453602E+003	2.3023677E+000	-1.099050802251929E+001
3.730012177166063E+003	2.3016195E+000	-1.099062597791224E+001
3.745012177878525E+003	2.3010683E+000	-1.099073868720661E+001
3.760012178590987E+003	2.3003201E+000	-1.099055583364372E+001
3.775012179303449E+003	2.2996902E+000	-1.099056108610014E+001
3.790012180015910E+003	2.2990603E+000	-1.099054349195425E+001
3.805012180728372E+003	2.2982335E+000	-1.099048805423308E+001
3.820012181440834E+003	2.2977216E+000	-1.099065540473987E+001
3.835012182153296E+003	2.2970915E+000	-1.099075418860969E+001
3.850012182865758E+003	2.2964222E+000	-1.099066959261557E+001
3.865012183578219E+003	2.2955952E+000	-1.099067064687069E+001
3.880012184290681E+003	2.2950046E+000	-1.099064121648269E+001
3.895012185003143E+003	2.2944140E+000	-1.099081593075356E+001
3.910012185715605E+003	2.2937841E+000	-1.099081066710737E+001
3.925012186428066E+003	2.2932723E+000	-1.099075182731219E+001
3.940012187140528E+003	2.2925241E+000	-1.099064121660984E+001
3.955012187852990E+003	2.2918546E+000	-1.099077205677798E+001
3.970012188565452E+003	2.2912641E+000	-1.099084561532755E+001
3.985012189277913E+003	2.2907128E+000	-1.099089658832725E+001
4.000012189990375E+003	2.2900827E+000	-1.099080988636603E+001
4.015012190702837E+003	2.2893348E+000	-1.099096777845855E+001
4.030012191415299E+003	2.2887046E+000	-1.099072345715566E+001
4.045012192127761E+003	2.2881141E+000	-1.099085060940182E+001
4.060012192840222E+003	2.2874446E+000	-1.099081014640122E+001
4.075012193552684E+003	2.2868147E+000	-1.099079543336888E+001
4.090012194265146E+003	2.2863421E+000	-1.099085664387114E+001
4.105012194977608E+003	2.2856336E+000	-1.099066485959374E+001
4.120012195690069E+003	2.2850821E+000	-1.099059708730387E+001
4.135012196402531E+003	2.2844522E+000	-1.099078650519751E+001
4.150012197114993E+003	2.2837827E+000	-1.099084430243597E+001
4.165012197827455E+003	2.2833104E+000	-1.099094202976185E+001
4.180012198539916E+003	2.2825229E+000	-1.099092205702517E+001
4.195012199252378E+003	2.2818141E+000	-1.099074236686342E+001
4.210012199964840E+003	2.2811053E+000	-1.099080699240967E+001
4.225012200677302E+003	2.2804754E+000	-1.099080725842121E+001
4.240012201389764E+003	2.2797272E+000	-1.099083721078693E+001
4.255012202102225E+003	2.2790577E+000	-1.099063938097760E+001
4.270012202814687E+003	2.2783098E+000	-1.099061599841036E+001
4.285012203527149E+003	2.2774434E+000	-1.099078413461758E+001
4.300012204239611E+003	2.2766166E+000	-1.099073579210584E+001
4.315012204952072E+003	2.2759078E+000	-1.099053114365263E+001
4.330012205664534E+003	2.2750809E+000	-1.099053639560042E+001
4.345012206376996E+003	2.2742147E+000	-1.099028024479471E+001
4.360012207089458E+003	2.2734272E+000	-1.099037429398967E+001
4.375012207801919E+003	2.2726791E+000	-1.099030178867797E+001
4.390012208514381E+003	2.2718916E+000	-1.099044575000536E+001
4.405012209226843E+003	2.2711828E+000	-1.099051143578308E+001
4.420012209939305E+003	2.2703953E+000	-1.099057737422091E+001
4.435012210651767E+003	2.2696867E+000	-1.099065593053228E+001
4.450012211364228E+003	2.2688203E+000	-1.099064384938661E+001
4.465012212076690E+003	2.2680724E+000	-1.099092469120067E+001
4.480012212789152E+003	2.2674029E+000	-1.099102032298629E+001
4.495012213501614E+003	2.2668910E+000	-1.099056502426625E+001
4.510012214214075E+003	2.2661428E+000	-1.099066512318931E+001
4.525012214926537E+003	2.2653947E+000	-1.099070033284340E+001
4.540012215638999E+003	2.2647254E+000	-1.099072450594304E+001
4.555012216351461E+003	2.2639773E+000	-1.099069822865649E+001
4.570012217063922E+003	2.2631111E+000	-1.099088135001112E+001
4.585012217776384E+003	2.2625599E+000	-1.099088003330484E+001
4.600012218488846E+003	2.2616935E+000	-1.099087740726737E+001
4.615012219201308E+003	2.2608273E+000	-1.099091445001056E+001
4.630012219913770E+003	2.2599218E+000	-1.099077074223337E+001
4.645012220626231E+003	2.2593703E+000	-1.099067563293409E+001
4.660012221338693E+003	2.2585042E+000	-1.099054480700749E+001
4.675012222051155E+003	2.2577167E+000	-1.099059051280060E+001
4.690012222763617E+003	2.2569292E+000	-1.099052824766176E+001
4.705012223476078E+003	2.2561417E+000	-1.099067511146500E+001
4.720012224188540E+003	2.2554328E+000	-1.099068798441463E+001
4.735012224901002E+003	2.2546060E+000	-1.099056765348264E+001
4.750012225613464E+003	2.2538974E+000	-1.099047360136308E+001
4.765012226325925E+003	2.2531493E+000	-1.099057449437892E+001
4.780012227038387E+003	2.2522829E+000	-1.099053062180207E+001
4.795012227750849E+003	2.2513773E+000	-1.099044391475459E+001
4.810012228463311E+003	2.2506292E+000	-1.099055399559551E+001
4.825012229175773E+003	2.2498417E+000	-1.099067720954840E+001
4.840012229888234E+003	2.2490149E+000	-1.099053797145178E+001
4.855012230600696E+003	2.2482274E+000	-1.099049777598860E+001
4.870012231313158E+003	2.2473216E+000	-1.099039609790811E+001
4.885012232025620E+003	2.2465737E+000	-1.099061940506201E+001
4.900012232738081E+003	2.2456286E+000	-1.099057185677020E+001
4.915012233450543E+003	2.2446442E+000	-1.099071136583747E+001
4.930012234163005E+003	2.2438960E+000	-1.099062440778292E+001
4.945012234875467E+003	2.2429905E+000	-1.099069875114284E+001
4.960012235587928E+003	2.2421243E+000	-1.099065172482874E+001
4.975012236300390E+003	2.2411792E+000	-1.099071530209623E+001
4.990012237012852E+003	2.2403131E+000	-1.099060995008097E+001
5.005012237725314E+003	2.2393286E+000	-1.099080594374944E+001
5.020012238437776E+003	2.2384624E+000	-1.099066224385595E+001
5.035012239150237E+003	2.2375960E+000	-1.099056950551807E+001
5.050012239862699E+003	2.2366118E+000	-1.099048332121125E+001
5.065012240575161E+003	2.2355092E+000	-1.099045337342317E+001
5.080012241287623E+003	2.2345643E+000	-1.099040530747696E+001
5.095012242000084E+003	2.2336586E+000	-1.099058473277158E+001
5.110012242712546E+003	2.2328711E+000	-1.099056529472828E+001
5.125012243425008E+003	2.2319262E+000	-1.099056241018150E+001
5.140012244137470E+003	2.2310994E+000	-1.099044654524254E+001
5.155012244849931E+003	2.2303119E+000	-1.099050197368128E+001
5.170012245562393E+003	2.2296424E+000	-1.099034670889780E+001
5.185012246274855E+003	2.2288942E+000	-1.099021088241194E+001
5.200012246987317E+003	2.2279887E+000	-1.099035827035456E+001
5.215012247699779E+003	2.2271225E+000	-1.099059051737824E+001
5.230012248412240E+003	2.2263350E+000	-1.099049383299054E+001
5.245012249124702E+003	2.2254293E+000	-1.099044575178555E+001
5.260012249837164E+003	2.2245631E+000	-1.099044917738353E+001
5.275012250549626E+003	2.2235000E+000	-1.099047282138469E+001
5.290012251262087E+003	2.2226732E+000	-1.099024320052564E+001
5.305012251974549E+003	2.2217281E+000	-1.099036378271901E+001
5.320012252687011E+003	2.2207830E+000	-1.099032699645061E+001
5.335012253399473E+003	2.2199168E+000	-1.099031439587036E+001
5.350012254111934E+003	2.2190113E+000	-1.099043919317685E+001
5.365012254824396E+003	2.2180269E+000	-1.099055294095893E+001
5.380012255536858E+003	2.2170031E+000	-1.099064437632344E+001
5.395012256249320E+003	2.2161763E+000	-1.099046913918475E+001
5.410012256961782E+003	2.2152705E+000	-1.099049304309393E+001
5.425012257674243E+003	2.2143257E+000	-1.099041476271231E+001
5.440012258386705E+003	2.2133412E+000	-1.099046440883321E+001
5.455012259099167E+003	2.2123568E+000	-1.099049881879963E+001
5.470012259811629E+003	2.2114906E+000	-1.099035905986971E+001
5.485012260524090E+003	2.2105062E+000	-1.099063123520061E+001
5.500012261236552E+003	2.2097974E+000	-1.099050276357788E+001
5.515012261949014E+003	2.2088132E+000	-1.099027840369474E+001
5.530012262661476E+003	2.2079074E+000	-1.099035932435537E+001
5.545012263373937E+003	2.2070413E+000	-1.099026736523295E+001
5.560012264086399E+003	2.2061357E+000	-1.099046887838662E+001
5.575012264798861E+003	2.2052300E+000	-1.099041501575389E+001
5.590012265511323E+003	2.2042849E+000	-1.099026342604958E+001
5.605012266223785E+003	2.2033401E+000	-1.099029679371360E+001
5.620012266936246E+003	2.2025132E+000	-1.099026710748658E+001
5.635012267648708E+003	2.2014894E+000	-1.099036720234063E+001
5.650012268361170E+003	2.2005444E+000	-1.099026134169909E+001
5.665012269073632E+003	2.1995206E+000	-1.099039032360113E+001
5.680012269786093E+003	2.1986151E+000	-1.099041265254904E+001
5.695012270498555E+003	2.1975913E+000	-1.099028339611597E+001
5.710012271211017E+003	2.1965675E+000	-1.099029890387687E+001
5.725012271923479E+003	2.1957800E+000	-1.099021245521155E+001
5.740012272635940E+003	2.1947169E+000	-1.099005693204592E+001
5.755012273348402E+003	2.1936145E+000	-1.099009607427123E+001
5.770012274060864E+003	2.1927483E+000	-1.099009738360243E+001
5.785012274773326E+003	2.1916063E+000	-1.099010474533202E+001
5.800012275485788E+003	2.1906219E+000	-1.099014783627744E+001
5.815012276198249E+003	2.1896377E+000	-1.099020169217088E+001
5.830012276910711E+003	2.1886532E+000	-1.099026106704090E+001
5.845012277623173E+003	2.1875508E+000	-1.099032201992395E+001
5.860012278335635E+003	2.1864877E+000	-1.099032333306985E+001
5.875012279048096E+003	2.1853063E+000	-1.099021167459737E+001
5.890012279760558E+003	2.1842825E+000	-1.099016096544755E+001
5.905012280473020E+003	2.1832983E+000	-1.099017199933171E+001
5.920012281185482E+003	2.1822350E+000	-1.099029731581848E+001
5.935012281897943E+003	2.1810145E+000	-1.099018066873947E+001
5.950012282610405E+003	2.1800694E+000	-1.099003249573218E+001
5.965012283322867E+003	2.1790063E+000	-1.098988484228664E+001
5.980012284035329E+003	2.1780219E+000	-1.098986463113139E+001
5.995012284747791E+003	2.1768408E+000	-1.098990376025958E+001
6.010012285460252E+003	2.1758564E+000	-1.098979105541568E+001
6.025012286172714E+003	2.1749508E+000	-1.098999519142792E+001
6.040012286885176E+003	2.1737301E+000	-1.098978186492031E+001
6.055012287597638E+003	2.1726277E+000	-1.098993608244228E+001
6.070012288310099E+003	2.1714857E+000	-1.099002672244245E+001
6.085012289022561E+003	2.1704226E+000	-1.098986251740773E+001
6.100012289735023E+003	2.1693201E+000	-1.099004221507172E+001
6.115012290447485E+003	2.1681390E+000	-1.098997259939306E+001
6.130012291159946E+003	2.1669970E+000	-1.098995394959333E+001
6.145012291872408E+003	2.1658158E+000	-1.098975927593721E+001
6.160012292584870E+003	2.1646345E+000	-1.098975006713130E+001
6.175012293297332E+003	2.1634533E+000	-1.098993187724738E+001
6.190012294009794E+003	2.1624296E+000	-1.098995604678663E+001
6.205012294722255E+003	2.1612482E+000	-1.098975822613258E+001
6.220012295434717E+003	2.1601064E+000	-1.098982757757988E+001
6.235012296147179E+003	2.1590040E+000	-1.098983991850642E+001
6.250012296859641E+003	2.1579409E+000	-1.098966547558767E+001
6.265012297572102E+003	2.1567991E+000	-1.098974954604367E+001
6.280012298284564E+003	2.1555390E+000	-1.098991270254532E+001
6.295012298997026E+003	2.1545546E+000	-1.098966311505311E+001
6.310012299709488E+003	2.1535308E+000	-1.098970016504423E+001
6.325012300421949E+003	2.1523890E+000	-1.098980366731287E+001
6.340012301134411E+003	2.1512077E+000	-1.098962318216825E+001
6.355012301846873E+003	2.1501839E+000	-1.098969227574203E+001
6.370012302559335E+003	2.1490421E+000	-1.098967809498709E+001
6.385012303271797E+003	2.1477821E+000	-1.098979500528020E+001
6.400012303984258E+003	2.1465616E+000	-1.098990613007656E+001
6.415012304696720E+003	2.1454589E+000	-1.098993292476320E+001
6.430012305409182E+003	2.1441596E+000	-1.098988642602171E+001
6.445012306121644E+003	2.1430178E+000	-1.098975349171203E+001
6.460012306834105E+003	2.1417577E+000	-1.098984728303346E+001
6.475012307546567E+003	2.1405766E+000	-1.098975243923710E+001
6.490012308259029E+003	2.1393166E+000	-1.098970172881572E+001
6.505012308971491E+003	2.1380172E+000	-1.098964735399632E+001
6.520012309683952E+003	2.1370327E+000	-1.098964656893166E+001
6.535012310396414E+003	2.1357727E+000	-1.098985569266034E+001
6.550012311108876E+003	2.1346309E+000	-1.098981969476267E+001
6.565012311821338E+003	2.1333315E+000	-1.098975455168919E+001
6.580012312533800E+003	2.1322291E+000	-1.098994553818626E+001
6.595012313246261E+003	2.1310477E+000	-1.098997390999583E+001
6.610012313958723E+003	2.1299846E+000	-1.098993345856647E+001
6.625012314671185E+003	2.1288035E+000	-1.098972643393845E+001
6.640012315383647E+003	2.1274254E+000	-1.098966521987580E+001
6.655012316096108E+003	2.1264017E+000	-1.098992741278022E+001
6.670012316808570E+003	2.1251810E+000	-1.098959874852480E+001
6.685012317521032E+003	2.1239603E+000	-1.098965812097884E+001
6.700012318233494E+003	2.1230154E+000	-1.098976793542675E+001
6.715012318945955E+003	2.1217947E+000	-1.098983256783945E+001
6.730012319658417E+003	2.1205740E+000	-1.098985069299118E+001
6.745012320370879E+003	2.1192749E+000	-1.098966232668238E+001
6.760012321083341E+003	2.1180542E+000	-1.098983124642838E+001
6.775012321795803E+003	2.1167941E+000	-1.098995972479040E+001
6.790012322508264E+003	2.1156523E+000	-1.099005325429646E+001
6.805012323220726E+003	2.1145103E+000	-1.098989535686337E+001
6.820012323933188E+003	2.1132898E+000	-1.098975612207282E+001
6.835012324645650E+003	2.1120298E+000	-1.098990087151663E+001
6.850012325358111E+003	2.1108880E+000	-1.098970042418932E+001
6.865012326070573E+003	2.1097853E+000	-1.098961477508450E+001
6.880012326783035E+003	2.1086042E+000	-1.098962606544346E+001
6.895012327495497E+003	2.1073442E+000	-1.098959401702884E+001
6.910012328207958E+003	2.1062417E+000	-1.098952440249459E+001
6.925012328920420E+003	2.1051393E+000	-1.098958167444927E+001
6.940012329632882E+003	2.1039186E+000	-1.098967257194150E+001
6.955012330345344E+003	2.1028554E+000	-1.098984964089772E+001
6.970012331057806E+003	2.1016347E+000	-1.098958167254192E+001
6.985012331770267E+003	2.1003354E+000	-1.098970015779630E+001
7.000012332482729E+003	2.0990360E+000	-1.098979262681657E+001
7.015012333195191E+003	2.0977366E+000	-1.098966837030697E+001
7.030012333907653E+003	2.0963192E+000	-1.098962239443330E+001
7.045012334620114E+003	2.0952168E+000	-1.098976137020591E+001
7.060012335332576E+003	2.0939174E+000	-1.098999361672096E+001
7.075012336045038E+003	2.0926573E+000	-1.099004116590287E+001
7.090012336757500E+003	2.0913579E+000	-1.098997233452593E+001
7.105012337469961E+003	2.0899012E+000	-1.098985306573277E+001
7.120012338182423E+003	2.0884836E+000	-1.098982731690892E+001
7.135012338894885E+003	2.0872235E+000	-1.098971407762597E+001
7.150012339607347E+003	2.0858061E+000	-1.098965392277755E+001
7.165012340319809E+003	2.0844674E+000	-1.098956250254466E+001
7.180012341032270E+003	2.0830498E+000	-1.098944505743102E+001
7.195012341744732E+003	2.0816324E+000	-1.098950601285720E+001
7.210012342457194E+003	2.0803330E+000	-1.098965470657064E+001
7.225012343169656E+003	2.0789549E+000	-1.098971355615687E+001
7.240012343882117E+003	2.0775769E+000	-1.098949891383309E+001
7.255012344594579E+003	2.0761986E+000	-1.098949812686108E+001
7.270012345307041E+003	2.0746632E+000	-1.098948551000478E+001
7.285012346019503E+003	2.0732455E+000	-1.098948735428367E+001
7.300012346731965E+003	2.0719855E+000	-1.098956223157401E+001
7.315012347444426E+003	2.0705287E+000	-1.098960558230031E+001
7.330012348156888E+003	2.0692294E+000	-1.098956143951574E+001
7.345012348869350E+003	2.0678513E+000	-1.098945583484038E+001
7.360012349581812E+003	2.0663157E+000	-1.098944689929393E+001
7.375012350294273E+003	2.0649769E+000	-1.098943061269904E+001
7.390012351006735E+003	2.0635593E+000	-1.098945845553728E+001
7.405012351719197E+003	2.0619843E+000	-1.098953779818488E+001
7.420012352431659E+003	2.0607638E+000	-1.098942115619212E+001
7.435012353144120E+003	2.0593069E+000	-1.098931763790175E+001
7.450012353856582E+003	2.0578499E+000	-1.098953648669202E+001
7.465012354569044E+003	2.0563538E+000	-1.098953647880831E+001
7.480012355281506E+003	2.0549362E+000	-1.098950705821136E+001
7.495012355993968E+003	2.0535581E+000	-1.098922201209249E+001
7.510012356706429E+003	2.0522194E+000	-1.098906621426868E+001
7.525012357418891E+003	2.0508020E+000	-1.098923356770006E+001
7.540012358131353E+003	2.0496600E+000	-1.098916447285471E+001
7.555012358843815E+003	2.0481639E+000	-1.098930792339416E+001
7.570012359556276E+003	2.0467069E+000	-1.098920651030795E+001
7.585012360268738E+003	2.0452106E+000	-1.098936098087150E+001
7.600012360981200E+003	2.0437932E+000	-1.098936939456739E+001
7.615012361693662E+003	2.0422182E+000	-1.098918759843853E+001
7.630012362406123E+003	2.0408401E+000	-1.098907961580816E+001
7.645012363118585E+003	2.0393438E+000	-1.098910615465578E+001
7.660012363831047E+003	2.0378082E+000	-1.098912243184108E+001
7.675012364543509E+003	2.0363119E+000	-1.098912978886588E+001
7.690012365255971E+003	2.0347764E+000	-1.098907489028857E+001
7.705012365968432E+003	2.0332012E+000	-1.098891463308386E+001
7.720012366680894E+003	2.0315869E+000	-1.098902181500931E+001
7.735012367393356E+003	2.0301695E+000	-1.098905413274154E+001
7.750012368105818E+003	2.0286338E+000	-1.098906357958456E+001
7.765012368818279E+003	2.0270195E+000	-1.098913031809152E+001
7.780012369530741E+003	2.0255232E+000	-1.098912795488667E+001
7.795012370243203E+003	2.0238695E+000	-1.098917235681633E+001
7.810012370955665E+003	2.0224125E+000	-1.098923987593747E+001
7.825012371668126E+003	2.0206409E+000	-1.098926009675662E+001
7.840012372380588E+003	2.0191445E+000	-1.098925984079044E+001
7.855012373093050E+003	2.0173333E+000	-1.098923566794512E+001
7.870012373805512E+003	2.0157189E+000	-1.098932736436207E+001
7.885012374517974E+003	2.0141439E+000	-1.098943480403388E+001
7.900012375230435E+003	2.0124507E+000	-1.098933260855330E+001
7.915012375942897E+003	2.0109153E+000	-1.098939277268416E+001
7.930012376655359E+003	2.0092614E+000	-1.098953017934470E+001
7.945012377367821E+003	2.0075290E+000	-1.098969988924163E+001
7.960012378080282E+003	2.0061114E+000	-1.098962108904396E+001
7.975012378792744E+003	2.0044971E+000	-1.098953306783334E+001
7.990012379505206E+003	2.0028434E+000	-1.098953201790154E+001
8.005012380217668E+003	2.0012684E+000	-1.098947999382564E+001
8.020012380930129E+003	1.9995753E+000	-1.098948551445526E+001
8.035012381642591E+003	1.9979216E+000	-1.098938752099068E+001
8.050012382355053E+003	1.9963859E+000	-1.098931501720486E+001
8.065012383067515E+003	1.9946140E+000	-1.098931395671907E+001
8.080012383779977E+003	1.9929209E+000	-1.098943481229906E+001
8.095012384492438E+003	1.9911884E+000	-1.098934312084122E+001
8.110012385204900E+003	1.9895347E+000	-1.098941853066328E+001
8.125012385917362E+003	1.9880384E+000	-1.098925852878896E+001
8.140012386629824E+003	1.9864634E+000	-1.098943139941674E+001
8.155012387342285E+003	1.9848098E+000	-1.098947580223649E+001
8.170012388054747E+003	1.9831560E+000	-1.098930371985228E+001
8.185012388767209E+003	1.9813447E+000	-1.098935362778855E+001
8.200012389479671E+003	1.9796516E+000	-1.098933813070880E+001
8.215012390192132E+003	1.9779979E+000	-1.098923698045523E+001
8.230012390904594E+003	1.9762260E+000	-1.098924171665597E+001
8.245012391617056E+003	1.9744542E+000	-1.098918102876721E+001
8.260012392329518E+003	1.9724854E+000	-1.098926063144999E+001
8.275012393041980E+003	1.9705954E+000	-1.098937570560224E+001
8.290012393754441E+003	1.9687448E+000	-1.098926167871150E+001
8.305012394466903E+003	1.9669335E+000	-1.098938936043761E+001
8.320012395179365E+003	1.9651617E+000	-1.098930923272536E+001
8.335012395891827E+003	1.9631536E+000	-1.098942877159907E+001
8.350012396604288E+003	1.9612635E+000	-1.098915685960942E+001
8.365012397316750E+003	1.9594129E+000	-1.098941300876209E+001
8.380012398029212E+003	1.9574442E+000	-1.098942771238485E+001
8.395012398741674E+003	1.9556724E+000	-1.098940564766828E+001
8.410012399454135E+003	1.9539398E+000	-1.098951020940546E+001
8.425012400166597E+003	1.9520105E+000	-1.098957117271535E+001
8.440012400879059E+003	1.9500811E+000	-1.098957824974139E+001
8.455012401591521E+003	1.9481124E+000	-1.098952860501922E+001
8.470012402303983E+003	1.9462224E+000	-1.098953884951539E+001
8.485012403016444E+003	1.9443717E+000	-1.098946791471448E+001
8.500012403728906E+003	1.9423243E+000	-1.098929162688106E+001
8.515012404441368E+003	1.9405918E+000	-1.098951572711048E+001
8.530012405153830E+003	1.9386624E+000	-1.098918050119460E+001
8.545012405866291E+003	1.9367725E+000	-1.098942377510883E+001
8.560012406578753E+003	1.9348431E+000	-1.098946528994857E+001
8.575012407291215E+003	1.9329137E+000	-1.098947317022265E+001
8.590012408003677E+003	1.9308662E+000	-1.098943323276015E+001
8.605012408716138E+003	1.9289368E+000	-1.098967178776693E+001
8.620012409428600E+003	1.9269681E+000	-1.098962554282996E+001
8.635012410141062E+003	1.9250387E+000	-1.098959428774518E+001
8.650012410853524E+003	1.9230700E+000	-1.098946029422127E+001
8.665012411565986E+003	1.9210619E+000	-1.098946948509811E+001
8.680012412278447E+003	1.9190931E+000	-1.098955277163387E+001
8.695012412990909E+003	1.9172031E+000	-1.098946423658355E+001
8.710012413703371E+003	1.9152738E+000	-1.098944059906738E+001
8.725012414415833E+003	1.9134232E+000	-1.098941537196693E+001
8.740012415128294E+003	1.9114544E+000	-1.098922621067526E+001
8.755012415840756E+003	1.9095644E+000	-1.098930870451697E+001
8.770012416553218E+003	1.9074382E+000	-1.098931974463180E+001
8.785012417265680E+003	1.9053906E+000	-1.098923250708711E+001
8.800012417978141E+003	1.9035007E+000	-1.098907121037745E+001
8.815012418690603E+003	1.9014138E+000	-1.098921675543991E+001
8.830012419403065E+003	1.8993663E+000	-1.098923041256410E+001
8.845012420115527E+003	1.8973188E+000	-1.098927375947570E+001
8.860012420827989E+003	1.8952713E+000	-1.098917393254054E+001
8.875012421540450E+003	1.8933814E+000	-1.098905281222057E+001
8.890012422252912E+003	1.8914913E+000	-1.098919126944869E+001
8.905012422965374E+003	1.8894044E+000	-1.098918838045143E+001
8.920012423677836E+003	1.8873570E+000	-1.098939462103205E+001
8.935012424390297E+003	1.8852701E+000	-1.098930108745698E+001
8.950012425102759E+003	1.8831832E+000	-1.098928663674864E+001
8.965012425815221E+003	1.8810570E+000	-1.098915133859833E+001
8.980012426527683E+003	1.8788913E+000	-1.098925143307091E+001
8.995012427240144E+003	1.8768045E+000	-1.098939619319587E+001
9.010012427952606E+003	1.8747571E+000	-1.098948604139209E+001
9.025012428665068E+003	1.8723158E+000	-1.098941090330361E+001
9.040012429377530E+003	1.8703077E+000	-1.098939697800622E+001
9.055012430089992E+003	1.8683783E+000	-1.098962738303983E+001
9.070012430802453E+003	1.8663309E+000	-1.098953228315014E+001
9.085012431514915E+003	1.8641652E+000	-1.098943638726033E+001
9.100012432227377E+003	1.8620783E+000	-1.098954673093388E+001
9.115012432939839E+003	1.8599521E+000	-1.098949445216337E+001
9.130012433652300E+003	1.8576684E+000	-1.098961478042508E+001
9.145012434364762E+003	1.8555027E+000	-1.098946555532434E+001
9.160012435077224E+003	1.8531796E+000	-1.098976741344904E+001
9.175012435789686E+003	1.8510534E+000	-1.098961766331882E+001
9.190012436502147E+003	1.8487302E+000	-1.098975637905625E+001
9.205012437214609E+003	1.8464859E+000	-1.098967940965886E+001
9.220012437927071E+003	1.8442415E+000	-1.098958613561036E+001
9.235012438639533E+003	1.8419578E+000	-1.098945320511537E+001
9.250012439351995E+003	1.8397921E+000	-1.098951205343004E+001
9.265012440064456E+003	1.8375084E+000	-1.098943533058924E+001
9.280012440776918E+003	1.8352641E+000	-1.098934732730769E+001
9.295012441489380E+003	1.8329803E+000	-1.098939618683804E+001
9.310012442201842E+003	1.8305784E+000	-1.098936623790555E+001
9.325012442914303E+003	1.8282948E+000	-1.098934574586144E+001
9.340012443626765E+003	1.8258928E+000	-1.098947973480771E+001
9.355012444339227E+003	1.8235303E+000	-1.098940748965835E+001
9.370012445051689E+003	1.8212466E+000	-1.098940538979476E+001
9.385012445764150E+003	1.8188448E+000	-1.098957668215520E+001
9.400012446476612E+003	1.8165610E+000	-1.098936729063479E+001
9.415012447189074E+003	1.8140804E+000	-1.098961109644494E+001
9.430012447901536E+003	1.8116785E+000	-1.098964393691783E+001
9.445012448613998E+003	1.8092767E+000	-1.098954305725343E+001
9.460012449326459E+003	1.8069142E+000	-1.098958193194132E+001
9.475012450038921E+003	1.8044729E+000	-1.098947027702923E+001
9.490012450751383E+003	1.8023467E+000	-1.098935153224829E+001
9.505012451463845E+003	1.7998267E+000	-1.098944006539126E+001
9.520012452176306E+003	1.7974248E+000	-1.098955225194497E+001
9.535012452888768E+003	1.7952592E+000	-1.098957484703159E+001
9.550012453601230E+003	1.7930542E+000	-1.098954882990737E+001
9.565012454313692E+003	1.7908099E+000	-1.098969253971907E+001
9.580012455026153E+003	1.7885655E+000	-1.098978762994486E+001
9.595012455738615E+003	1.7861637E+000	-1.098967020962675E+001
9.610012456451077E+003	1.7834861E+000	-1.098969149144031E+001
9.625012457163539E+003	1.7810843E+000	-1.098951888466242E+001
9.640012457876001E+003	1.7786037E+000	-1.098961215998249E+001
9.655012458588462E+003	1.7767924E+000	-1.098963972968842E+001
9.670012459300924E+003	1.7758474E+000	-1.098976110228702E+001
9.685012460013386E+003	1.7738787E+000	-1.098978081219107E+001
9.700012460725848E+003	1.7717130E+000	-1.098941984393633E+001
9.715012461438309E+003	1.7692325E+000	-1.098940197805685E+001
9.730012462150771E+003	1.7669094E+000	-1.098937805329398E+001
9.745012462863233E+003	1.7645862E+000	-1.098939593138050E+001
9.760012463575695E+003	1.7621844E+000	-1.098950915604044E+001
9.775012464288156E+003	1.7597431E+000	-1.098949076703884E+001
9.790012465000618E+003	1.7573806E+000	-1.098943507042690E+001
9.805012465713080E+003	1.7549788E+000	-1.098930449995784E+001
9.820012466425542E+003	1.7525375E+000	-1.098938173803706E+001
9.835012467138004E+003	1.7498994E+000	-1.098935521521117E+001
9.850012467850465E+003	1.7475764E+000	-1.098946739464411E+001
9.865012468562927E+003	1.7452137E+000	-1.098931081124701E+001
9.880012469275389E+003	1.7428119E+000	-1.098935651780306E+001
9.895012469987851E+003	1.7403313E+000	-1.098916158169579E+001
9.910012470700312E+003	1.7377720E+000	-1.098921491650160E+001
9.925012471412774E+003	1.7374569E+000	-1.098930372506570E+001
9.940012472125236E+003	1.7360789E+000	-1.098938174808242E+001
9.955012472837698E+003	1.7339132E+000	-1.098938568154374E+001
9.970012473550159E+003	1.7316688E+000	-1.098911929081950E+001
9.985012474262621E+003	1.7292670E+000	-1.098906070368442E+001
1.000001247497508E+004	1.7271408E+000	-1.098907094334865E+001
1.001501247568754E+004	1.7246208E+000	-1.098886550296433E+001
1.003001247640001E+004	1.7221402E+000	-1.098894903999853E+001
1.004501247711247E+004	1.7196201E+000	-1.098888704354151E+001
1.006001247782493E+004	1.7171789E+000	-1.098901341034154E+001
1.007501247853739E+004	1.7146983E+000	-1.098916657424417E+001
1.009001247924985E+004	1.7120996E+000	-1.098923592874324E+001
1.010501247996232E+004	1.7096189E+000	-1.098912217104295E+001
1.012001248067478E+004	1.7071778E+000	-1.098924354923645E+001
1.013501248138724E+004	1.7046183E+000	-1.098930660795945E+001
1.015001248209970E+004	1.7019409E+000	-1.098920098916970E+001
1.016501248281216E+004	1.6992633E+000	-1.098916500322476E+001
1.018001248352462E+004	1.6967827E+000	-1.098913767638788E+001
1.019501248423709E+004	1.6943809E+000	-1.098919705787005E+001
1.021001248494955E+004	1.6920577E+000	-1.098936729915428E+001
1.022501248566201E+004	1.6894196E+000	-1.098932367872890E+001
1.024001248637447E+004	1.6868997E+000	-1.098929478710328E+001
1.025501248708693E+004	1.6841041E+000	-1.098940537847783E+001
1.027001248779939E+004	1.6815053E+000	-1.098924013241227E+001
1.028501248851186E+004	1.6788672E+000	-1.098913951291021E+001
1.030001248922432E+004	1.6761503E+000	-1.098937439016753E+001
1.031501248993678E+004	1.6734334E+000	-1.098949392509940E+001
1.033001249064924E+004	1.6708741E+000	-1.098949944178716E+001
1.034501249136170E+004	1.6680391E+000	-1.098953543790463E+001
1.036001249207417E+004	1.6653616E+000	-1.098945109927542E+001
1.037501249278663E+004	1.6624873E+000	-1.098955250969134E+001
1.039001249349909E+004	1.6598098E+000	-1.098956276792043E+001
1.040501249421155E+004	1.6570141E+000	-1.098959585444127E+001
1.042001249492401E+004	1.6542974E+000	-1.098956329040677E+001
1.043501249563647E+004	1.6515805E+000	-1.098963263791222E+001
1.045001249634894E+004	1.6488636E+000	-1.098947946841470E+001
1.046501249706140E+004	1.6458710E+000	-1.098960952377249E+001
1.048001249777386E+004	1.6431148E+000	-1.098934811186373E+001
1.049501249848632E+004	1.6404374E+000	-1.098943034325427E+001
1.051001249919878E+004	1.6376023E+000	-1.098956669883861E+001
1.052501249991125E+004	1.6349249E+000	-1.098964813448335E+001
1.054001250062371E+004	1.6320505E+000	-1.098955198860372E+001
1.055501250133617E+004	1.6290187E+000	-1.098961030095344E+001
1.057001250204863E+004	1.6261836E+000	-1.098942509054354E+001
1.058501250276109E+004	1.6233881E+000	-1.098947160072912E+001
1.060001250347355E+004	1.6204743E+000	-1.098957930882845E+001
1.061501250418602E+004	1.6174818E+000	-1.098940485561001E+001
1.063001250489848E+004	1.6145287E+000	-1.098925510929449E+001
1.064501250561094E+004	1.6115756E+000	-1.098929004759646E+001
1.066001250632340E+004	1.6084650E+000	-1.098935310517505E+001
1.067501250703586E+004	1.6054331E+000	-1.098931317635920E+001
1.069001250774832E+004	1.6025587E+000	-1.098931265018532E+001
1.070501250846079E+004	1.5994481E+000	-1.098931396460278E+001
1.072001250917325E+004	1.5964557E+000	-1.098933760110169E+001
1.073501250988571E+004	1.5934238E+000	-1.098926903713502E+001
1.075001251059817E+004	1.5904313E+000	-1.098928033308887E+001
1.076501251131063E+004	1.5874388E+000	-1.098919653233195E+001
1.078001251202310E+004	1.5843282E+000	-1.098918050183039E+001
1.079501251273556E+004	1.5813751E+000	-1.098926640524834E+001
1.081001251344802E+004	1.5781463E+000	-1.098920913672689E+001
1.082501251416048E+004	1.5749964E+000	-1.098931869342844E+001
1.084001251487294E+004	1.5718464E+000	-1.098954857533992E+001
1.085501251558540E+004	1.5686570E+000	-1.098954988276377E+001
1.087001251629787E+004	1.5655857E+000	-1.098932946473428E+001
1.088501251701033E+004	1.5623176E+000	-1.098923776539273E+001
1.090001251772279E+004	1.5592071E+000	-1.098930266457992E+001
1.091501251843525E+004	1.5559783E+000	-1.098932998429602E+001
1.093001251914771E+004	1.5527496E+000	-1.098934522248500E+001
1.094501251986017E+004	1.5495602E+000	-1.098947763265530E+001
1.096001252057264E+004	1.5462921E+000	-1.098920677085176E+001
1.097501252128510E+004	1.5432602E+000	-1.098921990459951E+001
1.099001252199756E+004	1.5401102E+000	-1.098929320095223E+001
1.100501252271002E+004	1.5367634E+000	-1.098910483540637E+001
1.102001252342248E+004	1.5335740E+000	-1.098908934175985E+001
1.103501252413495E+004	1.5304635E+000	-1.098903758827313E+001
1.105001252484741E+004	1.5274709E+000	-1.098935152334733E+001
1.106501252555987E+004	1.5241240E+000	-1.098925852866180E+001
1.108001252627233E+004	1.5207379E+000	-1.098926956496194E+001
1.109501252698479E+004	1.5174698E+000	-1.098931343219822E+001
1.111001252769725E+004	1.5140835E+000	-1.098951861203873E+001
1.112501252840972E+004	1.5106972E+000	-1.098940722542700E+001
1.114001252912218E+004	1.5071535E+000	-1.098945424932512E+001
1.115501252983464E+004	1.5036886E+000	-1.098942982458262E+001
1.117001253054710E+004	1.5002630E+000	-1.098963683700362E+001
1.117149253061740E+004	1.4999479E+000	-1.098963263353391E+001
1.117149453061749E+004	1.4999479E+000	-1.098984856858637E+001
